# lasilla.wfi.ESO859
# photon
# La Silla 2.2m WFI ESO859 http://svo2.cab.inta-csic.es/theory/fps/index.php?id=LaSilla/WFI.ESO859
4885.000 0.0003109988289925
4890.000 0.000402240693385
4895.000 0.00051636186223
4900.000 0.0006685946564
4905.000 0.0008590007221825
4910.000 0.001118065250085
4915.000 0.0014991691740775
4920.000 0.00201012386784
4925.000 0.0027654121584375
4930.000 0.003849274157825
4935.000 0.005445274459695
4940.000 0.00792813580823
4945.000 0.011856618162842
4950.000 0.017867069171425
4955.000 0.02766720325555
4960.000 0.04367192322538
4965.000 0.070045759459038
4970.000 0.11227120844461
4975.000 0.17635567808344
4980.000 0.26230362841052
4985.000 0.36420011873641
4990.000 0.4647480781151
4995.000 0.55056632851748
5000.000 0.611393781976
5005.000 0.64765570747117
5010.000 0.66624760328958
5015.000 0.67485441255573
5020.000 0.6785157870498
5025.000 0.67830083928953
5030.000 0.67454144113814
5035.000 0.66580496994017
5040.000 0.64993118104428
5045.000 0.62192408958053
5050.000 0.57525007554355
5055.000 0.50666847659221
5060.000 0.41835944807804
5065.000 0.32116077360653
5070.000 0.23073735484668
5075.000 0.15686797715745
5080.000 0.10428513898112
5085.000 0.068528859005385
5090.000 0.04493546095829
5095.000 0.029908497012685
5100.000 0.02017542339
5105.000 0.013965811669625
5110.000 0.00993125317382
5115.000 0.00720619980417
5120.000 0.00533871629464
5125.000 0.0040071787679
5130.000 0.00306603989277
5135.000 0.00236985136265
5140.000 0.00185734106298
5145.000 0.001474920649665
5150.000 0.0011919605802
5155.000 0.000954933749375
5160.000 0.00078673120512
5165.000 0.000649133447225
5170.000 0.0005344892791
5180.000 0.00038928071622
5185.000 0.000312897742865
