# lasilla.wfi.OIII-2
# photon
# La Silla 2.2m WFI OIII-2 http://svo2.cab.inta-csic.es/theory/fps/index.php?id=LaSilla/WFI.OIII-2
4930.000 0.00038111625325
4934.000 0.00045753677202
4938.000 0.000549280848168
4941.000 0.000641034787722
4944.000 0.000732847907712
4946.000 0.000824631437484
4948.000 0.00091645442088
4950.000 0.001015955621975
4952.000 0.0011460611964
4954.000 0.001268580611582
4955.000 0.0013527886674675
4956.000 0.001444658502042
4957.000 0.0015365480634285
4958.000 0.001620812011948
4959.000 0.001712740205008
4960.000 0.0018352760592
4961.000 0.001973133826869
4962.000 0.002111021184756
4963.000 0.002248938132861
4964.000 0.002386884671184
4965.000 0.0025784184530525
4966.000 0.002785297163012
4967.000 0.0029922202582985
4968.000 0.003199187738912
4969.000 0.0034061996048525
4970.000 0.003712773496225
4971.000 0.0040500372437795
4972.000 0.004387373322978
4973.000 0.0047247817338205
4974.000 0.005062262476307
4975.000 0.0055683204328625
4976.000 0.006135767965188
4977.000 0.0067033371461875
4978.000 0.007263366197172
4979.000 0.007831177853569
4980.000 0.0087363017526
4981.000 0.0097412548109755
4982.000 0.010746423220382
4983.000 0.011751806980819
4984.000 0.012757406092288
4985.000 0.014422628336242
4986.000 0.016287584518332
4987.000 0.018152940168364
4988.000 0.020026365284534
4989.000 0.021892520692403
4990.000 0.025201344282075
4991.000 0.028963551771762
4992.000 0.03272656477294
4993.000 0.02210143088592
4994.000 0.028182342581784
4995.000 0.031693179378327
4996.000 0.035788187046276
4997.000 0.040375424241362
4998.000 0.045739142832943
4999.000 0.052056209783961
5000.000 0.0593576503064
5001.000 0.068133420151848
5002.000 0.078321592923182
5003.000 0.090106322690018
5004.000 0.10357191385517
5005.000 0.11990069324168
5006.000 0.13845507050973
5007.000 0.15895073155903
5008.000 0.18359100056326
5009.000 0.21042536622965
5010.000 0.23931541436868
5011.000 0.27147390069084
5012.000 0.30632473707272
5013.000 0.34230932490686
5014.000 0.38037939894328
5015.000 0.41831639619929
5016.000 0.45403254170189
5017.000 0.48746665793103
5018.000 0.51761352967728
5019.000 0.54305363312085
5020.000 0.56390256723528
5021.000 0.58124288839648
5022.000 0.59433056340071
5023.000 0.60391806441489
5024.000 0.61006713678683
5025.000 0.61366056563573
5026.000 0.61456049573976
5027.000 0.61334266342449
5028.000 0.60981547033296
5029.000 0.60338071203088
5030.000 0.59386989984509
5031.000 0.58082304026981
5032.000 0.56348101295629
5033.000 0.54304864384663
5034.000 0.51852901779958
5035.000 0.48943162408157
5036.000 0.4565546593648
5037.000 0.4227441605843
5038.000 0.38671933993964
5039.000 0.35019076614011
5040.000 0.31473839500248
5041.000 0.28089129031699
5042.000 0.24895604536421
5043.000 0.22005975794215
5044.000 0.19301351715132
5045.000 0.16966515512063
5046.000 0.1494698759521
5047.000 0.13159925604415
5048.000 0.11546267232069
5049.000 0.10127462669497
5050.000 0.08932626021455
5051.000 0.077923032309276
5052.000 0.081906865313712
5053.000 0.079243961713349
5054.000 0.07658123896314
5055.000 0.07391103153399
5056.000 0.066971450919448
5057.000 0.060040006982529
5058.000 0.053101369446816
5059.000 0.046170868067544
5060.000 0.03923317361066
5061.000 0.035744735320536
5062.000 0.032248870463264
5063.000 0.028753243264984
5064.000 0.025265516909472
5065.000 0.02177802769177
5066.000 0.020007212032934
5067.000 0.018244179169143
5068.000 0.016481266177212
5069.000 0.014718473057141
5070.000 0.01295579980893
5071.000 0.011990027835035
5072.000 0.011024321530072
5073.000 0.010066341732498
5074.000 0.009100766504808
5075.000 0.008142917263325
5076.000 0.007591116173844
5077.000 0.00704701240556
5078.000 0.006502945641198
5079.000 0.005958915880758
5080.000 0.00541492312424
5081.000 0.005085412476056
5082.000 0.004755924238698
5083.000 0.004418800179619
5084.000 0.004089357024504
5085.000 0.003759936280215
5086.000 0.003545399708362
5087.000 0.003323220539422
5088.000 0.003108713414352
5089.000 0.002886564213377
5090.000 0.00267208653509
5091.000 0.00252652878027
5092.000 0.002388636815136
5093.000 0.002243098604641
5094.000 0.00210522566265
5095.000 0.001967362101935
5096.000 0.001867782146816
5097.000 0.001768208967063
5098.000 0.001668642562676
5099.000 0.001569082933655
5101.000 0.001408251711256
5102.000 0.001331670949332
5104.000 0.001193830581216
5106.000 0.001078965692514
5108.000 0.000987071592588
5110.000 0.00089519000103
5113.000 0.000787992726151
5115.000 0.000711440108055
5118.000 0.000627227172684
5121.000 0.000550679766408
5126.000 0.00045882162804
5131.000 0.00038228620895
