# lasilla.wfi.ESO857
# photon
# La Silla 2.2m WFI ESO857 http://svo2.cab.inta-csic.es/theory/fps/index.php?id=LaSilla/WFI.ESO857
6616.667 0.00032444255113558
6625.000 0.00042938160775
6633.334 0.00058307374466318
6641.667 0.00084832237121533
6650.000 0.0012664339225
6658.334 0.0019970849828816
6666.667 0.0033450040501104
6675.000 0.0059393157215
6683.334 0.011278547110123
6691.667 0.023017052547827
6700.000 0.050157332192
6708.334 0.10994788061158
6716.667 0.21557177888414
6725.000 0.34928919137
6733.334 0.46792217058852
6741.667 0.53718486596368
6750.000 0.5653537716255
6758.334 0.57449279182891
6766.667 0.57211771514598
6775.000 0.550834916905
6783.334 0.50205982072985
6791.667 0.42814045197145
6800.000 0.340982594262
6808.334 0.25494837171916
6816.667 0.18133005532187
6825.000 0.1248375448971
6833.334 0.08329910164936
6841.667 0.054146521202134
6850.000 0.0340463473632
6858.334 0.020795713390524
6866.667 0.012362347311584
6875.000 0.0072535470904
6883.334 0.0042729416946999
6891.667 0.002557027427455
6900.000 0.001578315888
6908.334 0.00099747778516474
6916.667 0.00066138771066328
6925.000 0.00044434141
6933.334 0.00029994162688933
