# lasilla.wfi.ESO850
# photon
# La Silla 2.2m WFI ESO850 http://svo2.cab.inta-csic.es/theory/fps/index.php?id=LaSilla/WFI.ESO850
7500.000 0.00025931564975
7520.000 0.0003287896212
7530.000 0.00039319656516
7540.000 0.00047348008173
7545.000 0.0005378588802675
7550.000 0.00059658897925
7555.000 0.00067135514157
7560.000 0.00074045384072
7565.000 0.0008578671296475
7570.000 0.000974867619045
7575.000 0.0011452215802875
7580.000 0.00131497510585
7585.000 0.00156449614857
7590.000 0.001813135301385
7595.000 0.002189030962075
7600.000 0.0025689241242
7605.000 0.0031917829125
7610.000 0.003806953283175
7615.000 0.0047218352209875
7620.000 0.00563320934925
7625.000 0.0070267729734125
7630.000 0.0084097048455
7635.000 0.01032898771135
7640.000 0.0122461008404
7645.000 0.014669196885
7650.000 0.0170881072103
7655.000 0.0201655941375
7660.000 0.02323627456815
7665.000 0.026752403356175
7670.000 0.030254722664075
7675.000 0.034385368899
7680.000 0.0384997058355
7685.000 0.043118727791912
7690.000 0.047719404307575
7695.000 0.052933733953275
7700.000 0.05812723849975
7705.000 0.06381172194075
7710.000 0.069473364300025
7715.000 0.0756117578286
7720.000 0.0817304224128
7725.000 0.088509742331413
7730.000 0.095266571409625
7735.000 0.10240042668424
7740.000 0.1095000430517
7745.000 0.1172303876359
7750.000 0.12492892001625
7755.000 0.13310238151481
7760.000 0.1412419946672
7765.000 0.1498324763292
7770.000 0.15839214114308
7775.000 0.16744353559115
7780.000 0.17645696908875
7785.000 0.18540270106785
7790.000 0.19431059305543
7795.000 0.2038224032481
7800.000 0.2132888261504
7805.000 0.22238268710108
7810.000 0.23144257300776
7815.000 0.24025301096385
7820.000 0.24902052365402
7825.000 0.25738429017247
7830.000 0.26570667625252
7835.000 0.27292903811567
7840.000 0.28011929966682
7845.000 0.28648431763248
7850.000 0.29282535177625
7855.000 0.2979383278097
7860.000 0.30303227550693
7865.000 0.3070616119039
7870.000 0.31107144736133
7875.000 0.31394896190593
7880.000 0.31681165011892
7885.000 0.31868929030704
7890.000 0.32055619695334
7895.000 0.32134205078237
7900.000 0.322116979344
7905.000 0.32185767039563
7910.000 0.32159184997275
7915.000 0.32028647203575
7920.000 0.31897905660524
7925.000 0.31668305307571
7930.000 0.31439397117596
7935.000 0.3110782510077
7940.000 0.3077739063875
7945.000 0.30343328888528
7950.000 0.29911320668137
7955.000 0.29394590631417
7960.000 0.28879824732536
7965.000 0.28251216695757
7970.000 0.27625078376733
7975.000 0.26939641545556
7980.000 0.26256488739208
7985.000 0.25532802566713
7990.000 0.24812049560226
7995.000 0.23140909859964
8000.000 0.214769205042
8005.000 0.2058445011224
8010.000 0.196962940125
8015.000 0.188034714425
8020.000 0.1791500968
8025.000 0.170331422868
8030.000 0.16155178522802
8035.000 0.15313117711564
8040.000 0.14475243275526
8045.000 0.1368620335872
8050.000 0.1290111491495
8055.000 0.1213888655214
8060.000 0.11380509654514
8065.000 0.10682410022288
8070.000 0.0998786183169
8075.000 0.0934733477336
8080.000 0.08709655447376
8085.000 0.081033893556
8090.000 0.07500256067932
8095.000 0.06957072609956
8100.000 0.0641671495524
8105.000 0.05918140772352
8110.000 0.05421753804834
8115.000 0.0497311605312
8120.000 0.04526848254922
8125.000 0.0412741315584
8130.000 0.03730103805054
8135.000 0.03370716163824
8140.000 0.03013676547024
8145.000 0.02703793407552
8150.000 0.0239600245847
8155.000 0.02133613863644
8160.000 0.01872237973368
8165.000 0.0165867741432
8170.000 0.01445873725782
8175.000 0.012655409907
8180.000 0.01086614345628
8185.000 0.00940621812392
8190.000 0.00795440970792
8195.000 0.00680795549984
8200.000 0.0056638602855
8205.000 0.00478554387927
8210.000 0.00390806000376
8215.000 0.003329353681685
8220.000 0.00275387101864
8225.000 0.0023377273698
8230.000 0.00192790725603
8235.000 0.00165571951792
8240.000 0.00138506358942
8245.000 0.001206955810325
8250.000 0.00102985399575
8255.000 0.000908839316385
8260.000 0.00078851052192
8265.000 0.000700159664395
8270.000 0.00061231178913
8275.000 0.000548298758175
8280.000 0.00048852874476
8285.000 0.000444564797175
8290.000 0.00039699799129
8300.000 0.0003295078476
8310.000 0.00027802953521
8325.000 0.0002264597715
8345.000 0.000175244381655
