# lasilla.wfi.ESO869
# photon
# La Silla 2.2m WFI ESO869 http://svo2.cab.inta-csic.es/theory/fps/index.php?id=LaSilla/WFI.ESO869
6775.000 0.0003393010625
6780.000 0.0004540983424
6785.000 0.00061599293665
6790.000 0.0008856542021
6795.000 0.00126267730435
6800.000 0.00188827828
6805.000 0.00288951845754
6810.000 0.00454751792352
6815.000 0.00739731157878
6820.000 0.01235374337764
6825.000 0.021044177322
6830.000 0.03635289033136
6835.000 0.06116302123918
6840.000 0.0974150529972
6845.000 0.14461889939358
6850.000 0.1992497210612
6855.000 0.2578201578936
6860.000 0.31571762062288
6865.000 0.37356778015414
6870.000 0.43209255638784
6875.000 0.4874767500343
6880.000 0.53525025985048
6885.000 0.57058941986628
6890.000 0.58875452935432
6895.000 0.59083791281326
6900.000 0.581773812633
6905.000 0.5685865190522
6910.000 0.55659857548016
6915.000 0.5497100155818
6920.000 0.54916415075016
6925.000 0.554969352225
6930.000 0.56555451821736
6935.000 0.57819634122224
6940.000 0.59018541912304
6945.000 0.59929432183044
6950.000 0.6036706948752
6955.000 0.60342353607566
6960.000 0.59918591357364
6965.000 0.59266777125262
6970.000 0.58568653692568
6975.000 0.580043805792
6980.000 0.57657192364328
6985.000 0.57515309535828
6990.000 0.57554158473648
6995.000 0.57592710874872
7000.000 0.5753675765292
7005.000 0.571236623409
7010.000 0.5618355693132
7015.000 0.5460882402634
7020.000 0.524364961284
7025.000 0.4983963103534
7030.000 0.4704882964684
7035.000 0.444400670742
7040.000 0.4208235151602
7045.000 0.40100645982
7050.000 0.3835814125866
7055.000 0.3651234827162
7060.000 0.3405308872716
7065.000 0.3054037239558
7070.000 0.257988136546
7075.000 0.202931093955
7080.000 0.1477064488758
7085.000 0.1003976851934
7090.000 0.0649921388456
7095.000 0.041122107453
7100.000 0.026058911692
7105.000 0.016684232264
7110.000 0.0108606276594
7115.000 0.007232320699
7120.000 0.004916021903
7125.000 0.0034109883114
7130.000 0.0024047247902
7135.000 0.0017346360982
7140.000 0.001263692283
7145.000 0.000935654696
7150.000 0.0007007458476
7155.000 0.0005340202506
7160.000 0.0004106720914
7165.000 0.0003305180484
7170.000 0.000262814925
