# lasilla.wfi.ESO878
# photon
# La Silla 2.2m WFI ESO878 http://svo2.cab.inta-csic.es/theory/fps/index.php?id=LaSilla/WFI.ESO878
3549.999 0.00016016412455794
3554.999 0.00022691325067905
3559.999 0.00031635949213564
3564.999 0.000428609981826
3569.999 0.00057492046074202
3574.999 0.00075898396720762
3579.999 0.00099812101005292
3584.999 0.0012949261099842
3589.999 0.0017006439987151
3594.999 0.0021930916703454
3599.999 0.0028061371529056
3604.999 0.0035572975514152
3609.999 0.0044851141295253
3614.999 0.0055985543202107
3619.999 0.0069452671200643
3624.999 0.0084930004679137
3629.999 0.01030956183431
3634.999 0.012296943127178
3639.999 0.014537706426528
3644.999 0.016966371594513
3649.999 0.019549169676046
3654.999 0.022265845609795
3659.999 0.025113477309641
3664.999 0.028010212272232
3669.999 0.030994028729349
3674.999 0.034082704893539
3679.999 0.037341898303095
3684.999 0.040748029916487
3689.999 0.044290577204363
3694.999 0.048085203059367
3699.999 0.052064948341024
3704.999 0.056339888971416
3709.999 0.060950681328884
3714.999 0.065830802834577
3719.999 0.070942404642978
3724.999 0.076284200222116
3729.999 0.081744568259609
3734.999 0.087353787937844
3739.999 0.092762066224396
3744.999 0.098224856093335
3749.999 0.10376145957429
3754.999 0.10951203197538
3759.999 0.11514838532042
3764.999 0.12060424405382
3769.999 0.12594355240378
3774.999 0.13123118525709
3779.999 0.13627367058972
3784.999 0.14114658082728
3789.999 0.14575958408967
3794.999 0.15024188786767
3799.999 0.1547352878434
3804.999 0.15936793203307
3809.999 0.1640443707086
3814.999 0.16890310373905
3819.999 0.17387906896451
3824.999 0.17904427802721
3829.999 0.18443204047864
3834.999 0.19004717646108
3839.999 0.19604285539326
3844.999 0.20236907959501
3849.999 0.20890948789113
3854.999 0.21556775364755
3859.999 0.22243541466749
3864.999 0.22955089861368
3869.999 0.23667683738819
3874.999 0.24385552344648
3879.999 0.25098614493225
3884.999 0.25769492517938
3889.999 0.26441354641551
3894.999 0.27075993997628
3899.999 0.27687915910279
3904.999 0.28261837434585
3909.999 0.28803584902305
3914.999 0.29290656515703
3919.999 0.29753111153553
3924.999 0.30180106932454
3929.999 0.30591526176147
3934.999 0.30952686476146
3939.999 0.31306493061835
3944.999 0.31654751658315
3949.999 0.31994643862561
3954.999 0.3230909164234
3959.999 0.32646773474817
3964.999 0.32976777696064
3969.999 0.33329653085952
3974.999 0.3371459706272
3979.999 0.34114353117694
3984.999 0.34550626083361
3989.999 0.35003279629643
3994.999 0.35480695143874
3999.999 0.35993950815707
4004.999 0.36399876763154
4009.999 0.36846976821111
4014.999 0.37295883457863
4019.999 0.37746091392555
4024.999 0.38222217926059
4029.999 0.3872545633875
4034.999 0.39201948497958
4039.999 0.39670737439793
4044.999 0.40131463524798
4049.999 0.40600041996997
4054.999 0.41017139254902
4059.999 0.41414272267929
4064.999 0.41804993761777
4069.999 0.42165163115531
4074.999 0.42507617095052
4079.999 0.42804151720631
4084.999 0.43073467057898
4089.999 0.43313884764851
4094.999 0.43524951143314
4099.999 0.43719085970595
4104.999 0.43890352580096
4109.999 0.44041193159125
4114.999 0.44168578543442
4119.999 0.44293270055823
4124.999 0.44416237714503
4129.999 0.44523108145776
4134.999 0.44641531700855
4139.999 0.44751033319107
4144.999 0.44847094168433
4149.999 0.45006447719905
4154.999 0.45138655738848
4159.999 0.45296066585829
4164.999 0.45486936948592
4169.999 0.45671797634911
4174.999 0.45838661306748
4179.999 0.46036023602751
4184.999 0.46278806052614
4189.999 0.46549717455384
4194.999 0.46800962986263
4199.999 0.47085522475405
4204.999 0.47407381840226
4209.999 0.47701912095127
4214.999 0.48033978720739
4219.999 0.48357572203873
4224.999 0.48680471015438
4229.999 0.49005301150723
4234.999 0.49343421342272
4239.999 0.49665580842589
4244.999 0.49982891577962
4249.999 0.50297501927915
4254.999 0.50585407769434
4259.999 0.50871470665363
4264.999 0.51159837507362
4269.999 0.51431952936292
4274.999 0.51658839287655
4279.999 0.51870348568135
4284.999 0.52088686917095
4289.999 0.52284441618836
4294.999 0.52461709247777
4299.999 0.52617246517509
4304.999 0.52768602824176
4309.999 0.52916104986155
4314.999 0.53040389016362
4319.999 0.53159763604423
4324.999 0.53276425172879
4329.999 0.53392235366107
4334.999 0.53509274491198
4339.999 0.53609736922587
4344.999 0.53730198618874
4349.999 0.53838023203942
4354.999 0.53955512341423
4359.999 0.54050597913732
4364.999 0.54199467158778
4369.999 0.54321677636996
4374.999 0.54472886510425
4379.999 0.54612912061758
4384.999 0.54765722762882
4389.999 0.54928901349076
4394.999 0.55097898888932
4399.999 0.5527160651075
4404.999 0.55437789457963
4409.999 0.55620626126768
4414.999 0.55794922175142
4419.999 0.55975062220774
4424.999 0.56209240840522
4429.999 0.56386798261168
4434.999 0.56599911304187
4439.999 0.56798581977412
4444.999 0.57026569205955
4449.999 0.57249681986517
4454.999 0.57458969966805
4459.999 0.57675498737101
4464.999 0.57873433815703
4469.999 0.5810154078345
4474.999 0.58282190745221
4479.999 0.58470624990625
4484.999 0.58671826780603
4489.999 0.58869423345081
4494.999 0.59018593696505
4499.999 0.59203133161951
4504.999 0.59386476248666
4509.999 0.59538634300396
4514.999 0.59689818606668
4519.999 0.59847626959986
4524.999 0.59982151219527
4529.999 0.60104203036707
4534.999 0.60246344304584
4539.999 0.60364302589517
4544.999 0.60486959018374
4549.999 0.60608429000757
4554.999 0.60725137474138
4559.999 0.60822990348944
4564.999 0.60926760875931
4569.999 0.61040120575266
4574.999 0.61133758131632
4579.999 0.61230099325556
4584.999 0.61323214101535
4589.999 0.61427767842384
4594.999 0.61535714285593
4599.999 0.61619936016409
4604.999 0.61704989075885
4609.999 0.61776183989499
4614.999 0.61858907373086
4619.999 0.61948905056233
4624.999 0.6204191335593
4629.999 0.62107842859832
4634.999 0.62236760081345
4639.999 0.62336097452435
4644.999 0.62442821221113
4649.999 0.62539127729421
4654.999 0.62645192127833
4659.999 0.62769319273446
4664.999 0.62907022151264
4669.999 0.63021723360608
4674.999 0.63155786678534
4679.999 0.63307538162215
4684.999 0.63446951247216
4689.999 0.63584103628657
4694.999 0.63723151814845
4699.999 0.63858523658818
4704.999 0.64010443066123
4709.999 0.64148426390684
4714.999 0.64299850804033
4719.999 0.64469804233814
4724.999 0.64573863618893
4729.999 0.64705369554875
4734.999 0.64838846573318
4739.999 0.64955632080441
4744.999 0.65068472728524
4749.999 0.65143577279317
4754.999 0.65239365895503
4759.999 0.65320479504644
4764.999 0.65384123769732
4769.999 0.65429595728738
4774.999 0.65453192955783
4779.999 0.65457354225595
4784.999 0.65448200278497
4789.999 0.65442225336486
4794.999 0.65399999994175
4799.999 0.65318308464155
4804.999 0.65237699137123
4809.999 0.65151395140117
4814.999 0.6503055585923
4819.999 0.64909621096126
4824.999 0.64771258129384
4829.999 0.64605636557054
4834.999 0.64424782899415
4839.999 0.64240825462646
4844.999 0.6403563366135
4849.999 0.63797762802204
4854.999 0.63584772358714
4859.999 0.63348969576871
4864.999 0.63098416435769
4869.999 0.6285808031033
4874.999 0.62650103519762
4879.999 0.62405625852296
4884.999 0.62208330488718
4889.999 0.62003347019523
4894.999 0.6182483436393
4899.999 0.61665846068456
4904.999 0.61543518184
4909.999 0.61459583802213
4914.999 0.61375294458005
4919.999 0.61331613664989
4924.999 0.61348110013787
4929.999 0.61397745554521
4934.999 0.61492318627815
4939.999 0.6162572111256
4944.999 0.61827638096965
4949.999 0.6205990984728
4954.999 0.62337488666433
4959.999 0.62654788529803
4964.999 0.63037733749043
4969.999 0.63453359142236
4974.999 0.63911214285749
4979.999 0.64410983326238
4984.999 0.64927660136915
4989.999 0.6546572065433
4994.999 0.66005932278987
4999.999 0.66523414851111
5004.999 0.66957724727055
5009.999 0.67366308742686
5014.999 0.67659227122457
5019.999 0.67837152666789
5024.999 0.67900834492628
5029.999 0.67735863865457
5034.999 0.67420598829445
5039.999 0.66858174299238
5044.999 0.66082762817221
5049.999 0.64981770614876
5054.999 0.63562799382441
5059.999 0.61817120952455
5064.999 0.59742679946564
5069.999 0.57380787269822
5074.999 0.54709145204262
5079.999 0.51834985239107
5084.999 0.48798997065427
5089.999 0.45678823205526
5094.999 0.42507347568591
5099.999 0.39399327394639
5104.999 0.3627055332856
5109.999 0.33290816568732
5114.999 0.3046065350922
5119.999 0.27814100955459
5124.999 0.25388537274883
5129.999 0.23149978256671
5134.999 0.21066985523451
5139.999 0.1916309796219
5144.999 0.17406356882367
5149.999 0.15829084229453
5154.999 0.14386192017114
5159.999 0.13097929287053
5164.999 0.11931913222195
5169.999 0.10857844653034
5174.999 0.099062137460229
5179.999 0.090598601781327
5184.999 0.082820219538219
5189.999 0.075808743839753
5194.999 0.069592239517887
5199.999 0.063869691102973
5204.999 0.058676204313404
5209.999 0.05405058314227
5214.999 0.049764050573518
5219.999 0.045937935980142
5224.999 0.042509052134898
5229.999 0.0393127578715
5234.999 0.036437386042325
5239.999 0.033796620530449
5244.999 0.03141745400531
5249.999 0.029321149521342
5254.999 0.027465764476193
5259.999 0.025779697916954
5264.999 0.024122901163633
5269.999 0.022511795848533
5274.999 0.021073490793659
5279.999 0.019736773328259
5284.999 0.018484631022806
5289.999 0.01735846353471
5294.999 0.016292592976638
5299.999 0.015294666083303
5304.999 0.014385548836892
5309.999 0.013564131747488
5314.999 0.012778173608506
5319.999 0.012065334326883
5324.999 0.011392309876483
5329.999 0.010779886760606
5334.999 0.010186806743505
5339.999 0.0096641484238809
5344.999 0.0091778730172017
5349.999 0.0087215874489186
5354.999 0.0082941382275373
5359.999 0.0078919451483824
5364.999 0.0074995984529793
5369.999 0.0071687355010851
5374.999 0.0068253999945223
5379.999 0.0065167504066825
5384.999 0.0062381454306285
5389.999 0.0059546345938426
5394.999 0.0057039528568665
5399.999 0.0054641144069961
5404.999 0.0052435529230755
5409.999 0.0050283981922489
5414.999 0.0048138016895666
5419.999 0.0046321778776942
5424.999 0.0044601954560476
5429.999 0.0042833890505904
5434.999 0.0041221283265944
5439.999 0.0039768645339355
5444.999 0.0038220801905046
5449.999 0.0036902547382888
5454.999 0.0035618529911951
5459.999 0.0034328624250348
5464.999 0.0033197079888238
5469.999 0.0032214026702446
5474.999 0.0031212938356987
5479.999 0.0030274034576959
5484.999 0.002921115331997
5489.999 0.0028289148994619
5494.999 0.0027461840924227
5499.999 0.0026668685887381
5504.999 0.0025814357072446
5509.999 0.0025014604809121
5514.999 0.0024281520977713
5519.999 0.0023515252915988
5524.999 0.0022824715965554
5529.999 0.0022197038841161
5534.999 0.0021536926478874
5539.999 0.0020949491894734
5544.999 0.0020452111455065
5549.999 0.0019832313535149
5554.999 0.0019318438547637
5559.999 0.001880689851117
5564.999 0.0018352874819387
5569.999 0.0017971473520351
5574.999 0.0017450295880486
5579.999 0.0017131731907172
5584.999 0.0016748973460449
5589.999 0.0016313368175521
5594.999 0.0015956404124209
5599.999 0.0015613842475332
5604.999 0.001527430708327
5609.999 0.0014949895303705
5614.999 0.0014640606145844
5619.999 0.0014292041819965
5624.999 0.0014053793333965
5629.999 0.0013746804583543
5634.999 0.0013494976638743
5639.999 0.0013183476980048
5644.999 0.0012908250172116
5649.999 0.0012688935333294
5654.999 0.0012536860557469
5659.999 0.0012164214490071
5664.999 0.0012020464392911
5669.999 0.0011820822090048
5674.999 0.0011640826534994
5679.999 0.0011401920832067
5684.999 0.0011233269727793
5689.999 0.0011092571595703
5694.999 0.0010917890111003
5699.999 0.001068279209742
5704.999 0.0010591204866419
5709.999 0.0010364429546715
5714.999 0.0010159564797437
5719.999 0.0009989448331076
5724.999 0.00099175164767805
5729.999 0.00097730877664138
5734.999 0.00096180917821277
5739.999 0.00094955741067116
5744.999 0.00092650729384344
5749.999 0.00091871200786609
5754.999 0.00090321465463923
5759.999 0.00088726480715798
5764.999 0.00088234008536643
5769.999 0.00087605638307211
5774.999 0.00085519993307011
5779.999 0.00085201272677518
5784.999 0.00083591430762327
5789.999 0.00083257657161653
5794.999 0.00081451606072135
5799.999 0.00080974433484441
5804.999 0.00080137304704114
5809.999 0.00079481362715937
5814.999 0.00077723057877055
5819.999 0.0007758805120688
5824.999 0.00076697991265775
5829.999 0.00075785258907352
5834.999 0.00075129228364115
5839.999 0.0007384646920604
5844.999 0.0007360569776566
5849.999 0.0007363675451933
5854.999 0.00071719647203765
5859.999 0.00071048429203173
5864.999 0.00071124764550193
5869.999 0.00070234536686993
5874.999 0.00069427353311446
5879.999 0.00069194062455778
5884.999 0.00068364193624668
5889.999 0.00067730648150544
5894.999 0.00066832777555866
5899.999 0.00066448409472209
5904.999 0.00066071584364329
5909.999 0.00065543710730099
5914.999 0.00065385876583746
5919.999 0.00064669178640799
5924.999 0.00064518882919964
5929.999 0.00064466764103491
5934.999 0.00063417723788039
5939.999 0.00063229645721962
5944.999 0.00062799880038154
5949.999 0.00062347446312279
5954.999 0.00062136690928604
5959.999 0.00061102668485817
5964.999 0.00060695517028502
5969.999 0.000602959091595
5974.999 0.00059511082570735
5979.999 0.0005933049488993
5984.999 0.00058825111050082
5989.999 0.00058599190872847
5994.999 0.0005807867986659
5999.999 0.00058230423970185
6004.999 0.00058395432419765
6009.999 0.00058394239071864
6014.999 0.00057080315767543
6019.999 0.00056506487689952
6024.999 0.00057289977459515
6029.999 0.00056392486417194
6034.999 0.00056376953337718
6039.999 0.00056399058640289
6044.999 0.00055600811788631
6049.999 0.00055201905315072
6054.999 0.00055201849194729
6059.999 0.00054923661067144
6064.999 0.00054660709509127
6069.999 0.00054608246888629
6074.999 0.00054600852937995
6079.999 0.00054135687175671
6084.999 0.00054203468285852
6089.999 0.00053986248009961
6094.999 0.0005353684274318
6099.999 0.00052975409922498
6104.999 0.00052549220094416
6109.999 0.00053538172194055
6114.999 0.00052722966196223
6119.999 0.00051654107216024
6124.999 0.00052148703137712
6129.999 0.00052149627067134
6134.999 0.00052426935556574
6139.999 0.00052106615826504
6144.999 0.00051316298748574
6149.999 0.00052123293441805
6154.999 0.00051318670533392
6159.999 0.00051521112153766
6164.999 0.00051760628165285
6169.999 0.00051046484689441
6174.999 0.00051323192204969
6179.999 0.00051190309315346
6184.999 0.00051369979293141
6189.999 0.00050976876070234
6194.999 0.00050294179619456
6199.999 0.00051120380176718
6204.999 0.00050557077444691
6209.999 0.00051382538785217
6214.999 0.00050834400492235
6219.999 0.00050768868747453
6224.999 0.00051155685298363
6229.999 0.00051468045513636
6234.999 0.00050794758604818
6239.999 0.00050862585327784
6244.999 0.00050449165136001
6249.999 0.00051301401243783
6254.999 0.00051901431108595
6259.999 0.00051133155623648
6264.999 0.00052301781989325
6269.999 0.00052080603982501
6274.999 0.00051770980703012
6279.999 0.00052539249303642
6284.999 0.00052273925389236
6289.999 0.00052547182186039
6294.999 0.00052164087768061
6299.999 0.00052835047515161
6304.999 0.00052459481597797
6309.999 0.00053070821031687
6314.999 0.00053446122256133
6319.999 0.00053865231781663
6324.999 0.00053864820142555
6329.999 0.00054187811644755
6334.999 0.00054069669401025
6339.999 0.00054451022864936
6344.999 0.0005483938000481
6349.999 0.00055638333345459
6354.999 0.00055908468816712
6359.999 0.00056750260607044
6364.999 0.00057415431937244
6369.999 0.00057127654494446
6374.999 0.000577408107408
6379.999 0.00058565707109054
6384.999 0.00059148439368802
6389.999 0.00059606329927715
6394.999 0.00060933775683523
6399.999 0.00061025114667294
6404.999 0.00061627737448006
6409.999 0.00062842230215233
6414.999 0.00062866405894233
6419.999 0.00064456720094115
6424.999 0.000648798109177
6429.999 0.00065898599479961
6434.999 0.00066661347533074
6439.999 0.00068018333636973
6444.999 0.00069402150963278
6449.999 0.00069978872912152
6454.999 0.0007092412008676
6459.999 0.00073265054299995
6464.999 0.00074155448679212
6469.999 0.0007552142949418
6474.999 0.0007796857968686
6479.999 0.00078852931637137
6484.999 0.00080053100287952
6489.999 0.00082339346971889
6494.999 0.00083613901201051
6499.999 0.000859007566846
6504.999 0.00088291742686977
6509.999 0.00091052377565854
6514.999 0.00092868315412924
6519.999 0.00095792896605953
6524.999 0.00098512097725819
6529.999 0.0010137009427582
6534.999 0.0010339349884931
6539.999 0.0010693633639627
6544.999 0.0010968765765284
6549.999 0.0011346232862178
6554.999 0.0011764454169554
6559.999 0.0012026640512053
6564.999 0.0012383814699521
6569.999 0.0012958841566475
6574.999 0.0013278418111622
6579.999 0.0013780748821494
6584.999 0.0014106227515051
6589.999 0.0014625505167612
6594.999 0.0015052515780813
6599.999 0.0015573714239498
6604.999 0.0016026920923011
6609.999 0.0016471936936465
6614.999 0.0016765553778714
6619.999 0.0017113392009521
6624.999 0.0017352652345624
6629.999 0.0017548403525478
6634.999 0.0017581422894471
6639.999 0.0017629041237897
6644.999 0.0017494356259786
6649.999 0.0017290675490445
6654.999 0.001696513727612
6659.999 0.0016563554444
6664.999 0.0015990694780831
6669.999 0.00154149948752
6674.999 0.0014705026003991
6679.999 0.0014067585774768
6684.999 0.001321033321687
6689.999 0.0012474309096615
6694.999 0.0011766337249351
6699.999 0.0010962587173912
6704.999 0.0010169048355057
6709.999 0.00094043087272915
6714.999 0.0008679289182688
6719.999 0.00079780293252022
6724.999 0.00074117480756306
6729.999 0.00068097787234702
6734.999 0.0006310013156601
6739.999 0.00058682710411822
6744.999 0.00053059063984882
6749.999 0.00048807924899318
6754.999 0.00045221822836187
6759.999 0.00041726177481798
6764.999 0.00039191455263062
6769.999 0.00036744423384668
6774.999 0.00034181197532712
6779.999 0.00031027801923816
6784.999 0.00029466131004634
