# lasilla.wfi.ESO849
# photon
# La Silla 2.2m WFI ESO849 http://svo2.cab.inta-csic.es/theory/fps/index.php?id=LaSilla/WFI.ESO849
7385.000 0.000229263437
7400.000 0.0002909545104
7410.000 0.000358232287455
7420.000 0.00041939227458
7430.000 0.000514031659505
7435.000 0.00058648904574
7440.000 0.00065307256904
7445.000 0.0007250514830925
7450.000 0.000813619987125
7455.000 0.0009242954353875
7460.000 0.00104578042877
7465.000 0.0011780186764275
7470.000 0.001343248467895
7475.000 0.0015301724040625
7480.000 0.00176089742916
7485.000 0.00201856188079
7490.000 0.002341777856895
7495.000 0.0027136274042325
7500.000 0.0031448919225
7505.000 0.00367932559159
7510.000 0.004316393648475
7515.000 0.00509398579192
7520.000 0.00602232989498
7525.000 0.007166283228375
7530.000 0.008546564228825
7535.000 0.01027096812969
7540.000 0.01241932812078
7545.000 0.015136109499245
7550.000 0.018477987748225
7555.000 0.022750276652235
7560.000 0.02820210321808
7565.000 0.035145575361785
7570.000 0.044396871733635
7575.000 0.056228766603975
7580.000 0.07144340258763
7585.000 0.091067606291933
7590.000 0.11602996232521
7595.000 0.14703347235264
7600.000 0.1850051746872
7605.000 0.22956898598156
7610.000 0.27889516751093
7615.000 0.32857825743173
7620.000 0.3747961953701
7625.000 0.41359237286483
7630.000 0.44400185425838
7635.000 0.46700277535258
7640.000 0.482206623962
7645.000 0.49012930192118
7650.000 0.4927105771763
7655.000 0.49234527715625
7660.000 0.4904671790823
7665.000 0.48821316587286
7670.000 0.48690853785665
7675.000 0.48611279577079
7680.000 0.486164093128
7685.000 0.48655195137176
7690.000 0.4875214921038
7695.000 0.48846296042206
7700.000 0.4890380213754
7705.000 0.48892635522938
7710.000 0.4883414102301
7715.000 0.48683225710341
7720.000 0.484918237062
7725.000 0.48256622524285
7730.000 0.47974844666088
7735.000 0.4768672608882
7740.000 0.47372119205915
7745.000 0.47058389275398
7750.000 0.4668772210893
7755.000 0.46229358570456
7760.000 0.4564177375177
7765.000 0.44782840393778
7770.000 0.43476176671743
7775.000 0.41737953945074
7780.000 0.39389037849
7785.000 0.36386097950186
7790.000 0.3289741014882
7795.000 0.2899957192503
7800.000 0.2496859677312
7805.000 0.21090759885174
7810.000 0.17532249605236
7815.000 0.14364159882682
7820.000 0.11642327609946
7825.000 0.094157729130013
7830.000 0.075725015826915
7835.000 0.061194263612668
7840.000 0.05019282688274
7845.000 0.041422391081963
7850.000 0.034169553525
7855.000 0.028189082678708
7860.000 0.0231656209726
7865.000 0.019098126276515
7870.000 0.01585150601832
7875.000 0.013215334189213
7880.000 0.0110571664928
7885.000 0.00928368992776
7890.000 0.00784981344863
7895.000 0.0066634478784825
7900.000 0.00569470305325
7905.000 0.004895066107995
7910.000 0.004221131263635
7915.000 0.0036392454708125
7920.000 0.00316758001976
7925.000 0.002758685368375
7930.000 0.002412170294105
7935.000 0.002113676548745
7940.000 0.00187219447961
7945.000 0.001659549283055
7950.000 0.001475560394825
7955.000 0.001320047250665
7960.000 0.00117901273088
7965.000 0.001056962040475
7970.000 0.00095377480328
7975.000 0.00086017979425
7980.000 0.00076698603912
7985.000 0.000701525708345
7990.000 0.0006363462553
7995.000 0.00241277909327
8000.000 0.00181010708
8005.000 0.001579773608
8010.000 0.001350603018
8015.000 0.00112259531
8020.000 0.000895750484
8025.000 0.00067006854
8030.000 0.000445549478
8035.000 0.00026218809164
